Point in Time[s],Power Consumption[W]
9.999999999999998,201.877
19.999999999999996,201.877
29.999999999999993,201.877
39.99999999999999,201.88475105420002
49.99999999999999,201.9254437981
59.99999999999999,201.97873156909998
69.99999999999999,202.0271771111
79.99999999999999,202.0804672073
89.99999999999999,202.12891158669999
99.99999999999999,202.182199939
109.99999999999999,202.230645481
119.99999999999999,202.2839338333
129.99999999999997,202.33722276689997
139.99999999999997,202.3856683089
149.99999999999997,202.43895840509998
159.99999999999997,202.4874016219
169.99999999999997,202.54069113680004
179.99999999999997,202.5891366788
189.99999999999997,202.64242386850003
199.99999999999997,202.69571396469996
209.99999999999997,202.7441595067
219.99999999999997,202.79744902160002
229.99999999999997,202.84589223839998
239.99999999999997,202.89918233460003
249.99999999999997,202.9524712682
259.99999999999994,203.00091506629997
269.99999999999994,203.05420516249995
279.99999999999994,203.10264925125
289.99999999999994,203.15593789419995
299.99999999999994,203.20438343619998
309.99999999999994,203.25767353240002
319.99999999999994,203.30611703984994
329.99999999999994,203.35940626410002
339.99999999999994,203.40785180610004
349.99999999999994,203.46113928644996
359.99999999999994,203.50958453780004
369.99999999999994,203.5677191882
379.99999999999994,203.61616443954995
389.99999999999994,203.66945191989993
399.99999999999994,203.7178974619
409.99999999999994,203.77118668614997
419.99999999999994,203.81963019359995
429.99999999999994,203.8729202898
439.99999999999994,203.92136583179996
449.99999999999994,203.97465447474997
459.99999999999994,204.0230985635
469.99999999999994,204.07638865969994
479.99999999999994,204.12483245779998
489.99999999999994,204.1781213914
499.99999999999994,204.23141148759998
509.99999999999994,204.27985702960007
519.9999999999999,204.33314450995
529.9999999999999,204.38158976129995
539.9999999999999,204.43487985749988
549.9999999999999,204.4881670471999
559.9999999999999,204.5366125892001
569.9999999999999,204.5899026854001
579.9999999999999,204.63834764610004
589.9999999999999,204.69163541709997
599.9999999999999,204.74008095909988
609.9999999999999,204.77722254129992
619.9999999999999,204.7820670955
629.9999999999999,204.7820670955
639.9999999999999,204.7820670955
649.9999999999999,204.7820670955
659.9999999999999,204.7820670955
669.9999999999999,204.7820670955
679.9999999999999,204.7820670955
689.9999999999999,204.7820670955
699.9999999999999,204.7820670955
709.9999999999999,204.7820670955
719.9999999999999,204.7820670955
729.9999999999999,204.7820670955
739.9999999999999,204.7820670955
749.9999999999999,204.7820670955
759.9999999999999,204.7820670955
769.9999999999999,204.7820670955
779.9999999999999,204.7820670955
789.9999999999999,204.7820670955
799.9999999999999,204.7820670955
809.9999999999999,204.7820670955
819.9999999999999,204.7820670955
829.9999999999999,204.7820670955
839.9999999999999,204.7820670955
849.9999999999999,204.7820670955
859.9999999999999,204.7820670955
869.9999999999999,204.7820670955
879.9999999999999,204.7820670955
889.9999999999999,204.7820670955
899.9999999999999,204.7820670955
909.9999999999999,204.7820670955
919.9999999999999,204.7820670955
929.9999999999999,204.7820670955
939.9999999999999,204.7820670955
949.9999999999999,204.7820670955
959.9999999999999,204.7820670955
969.9999999999999,203.03902683820002
979.9999999999999,201.877
989.9999999999999,201.877
999.9999999999999,201.877
1009.9999999999999,201.877
1019.9999999999999,201.877
1029.9999999999998,201.877
1039.9999999999998,201.877
1049.9999999999998,201.877
1059.9999999999998,201.877
1069.9999999999998,201.877
1079.9999999999998,201.877
1089.9999999999998,201.877
1099.9999999999998,201.877
1109.9999999999998,201.877
1119.9999999999998,201.877
1129.9999999999998,201.877
1139.9999999999998,201.877
1149.9999999999998,201.877
1159.9999999999998,201.877
1169.9999999999998,201.877
1179.9999999999998,201.877
1189.9999999999998,201.877
1199.9999999999998,201.877
1209.9999999999998,201.877
1219.9999999999998,201.877
1229.9999999999998,201.877
1239.9999999999998,201.877
1249.9999999999998,201.877
1259.9999999999998,201.877
1269.9999999999998,201.877
1279.9999999999998,201.877
1289.9999999999998,201.877
1299.9999999999998,201.877
1309.9999999999998,201.877
1319.9999999999998,201.877
1329.9999999999998,201.877
1339.9999999999998,201.877
1349.9999999999998,201.877
1359.9999999999998,201.877
1369.9999999999998,201.877
1379.9999999999998,201.877
1389.9999999999998,201.877
1399.9999999999998,201.877
1409.9999999999998,201.877
1419.9999999999998,201.877
1429.9999999999998,201.877
1439.9999999999998,201.877
1449.9999999999998,201.877
1459.9999999999998,201.877
1469.9999999999998,201.877
1479.9999999999998,201.877
1489.9999999999998,201.877
1499.9999999999998,201.877
1509.9999999999998,201.877
1519.9999999999998,201.877
1529.9999999999998,201.877
1539.9999999999998,201.877
1549.9999999999998,201.877
1559.9999999999998,201.877
1569.9999999999998,201.877
1579.9999999999998,201.877
1589.9999999999998,201.877
1599.9999999999998,201.877
1609.9999999999998,201.877
1619.9999999999998,201.877
1629.9999999999998,201.877
1639.9999999999998,201.877
1649.9999999999998,201.877
1659.9999999999998,201.877
1669.9999999999998,201.877
1679.9999999999998,201.877
1689.9999999999998,201.877
1699.9999999999998,201.877
1709.9999999999998,201.877
1719.9999999999998,201.877
1729.9999999999998,201.877
1739.9999999999998,201.877
1749.9999999999998,201.877
1759.9999999999998,201.877
1769.9999999999998,201.877
1779.9999999999998,201.877
1789.9999999999998,201.877
1799.9999999999998,201.877
1809.9999999999998,201.877
1819.9999999999998,201.877
1829.9999999999998,201.877
1839.9999999999998,201.877
1849.9999999999998,201.877
1859.9999999999998,201.877
1869.9999999999998,201.877
1879.9999999999998,201.877
1889.9999999999998,201.877
1899.9999999999998,201.877
1909.9999999999998,201.877
1919.9999999999998,201.877
1929.9999999999998,201.877
1939.9999999999998,201.877
1949.9999999999998,201.877
1959.9999999999998,201.877
1969.9999999999998,201.877
1979.9999999999998,201.877
1989.9999999999998,201.877
1999.9999999999998,201.877
2009.9999999999998,201.877
2019.9999999999998,201.877
2029.9999999999998,201.877
2039.9999999999998,201.877
2049.9999999999995,201.877
2059.9999999999995,201.877
2069.9999999999995,201.877
2079.9999999999995,201.877
2089.9999999999995,201.877
2099.9999999999995,201.877
2109.9999999999995,201.877
2119.9999999999995,201.877
2129.9999999999995,201.877
2139.9999999999995,201.877
2149.9999999999995,201.877
2159.9999999999995,201.877
2169.9999999999995,201.877
2179.9999999999995,201.877
2189.9999999999995,201.877
2199.9999999999995,201.877
2209.9999999999995,201.877
2219.9999999999995,201.877
2229.9999999999995,201.877
2239.9999999999995,201.877
2249.9999999999995,201.877
2259.9999999999995,201.877
2269.9999999999995,201.877
2279.9999999999995,201.877
2289.9999999999995,201.877
2299.9999999999995,201.877
2309.9999999999995,201.877
2319.9999999999995,201.877
2329.9999999999995,201.877
2339.9999999999995,201.877
2349.9999999999995,201.877
2359.9999999999995,201.877
2369.9999999999995,201.877
2379.9999999999995,201.877
2389.9999999999995,201.877
2399.9999999999995,201.877
2409.9999999999995,201.877
2419.9999999999995,201.877
2429.9999999999995,201.877
2439.9999999999995,201.877
2449.9999999999995,201.877
2459.9999999999995,201.877
2469.9999999999995,201.877
2479.9999999999995,201.877
2489.9999999999995,201.877
2499.9999999999995,201.877
2509.9999999999995,201.877
2519.9999999999995,201.877
2529.9999999999995,201.877
2539.9999999999995,201.877
2549.9999999999995,201.877
2559.9999999999995,201.877
2569.9999999999995,201.877
2579.9999999999995,201.877
2589.9999999999995,201.877
2599.9999999999995,201.877
2609.9999999999995,201.877
2619.9999999999995,201.877
2629.9999999999995,201.877
2639.9999999999995,201.877
2649.9999999999995,201.877
2659.9999999999995,201.877
2669.9999999999995,201.877
2679.9999999999995,201.877
2689.9999999999995,201.877
2699.9999999999995,201.877
2709.9999999999995,201.877
2719.9999999999995,201.877
2729.9999999999995,201.877
2739.9999999999995,201.877
2749.9999999999995,201.877
2759.9999999999995,201.877
2769.9999999999995,201.877
2779.9999999999995,201.877
2789.9999999999995,201.877
2799.9999999999995,201.877
2809.9999999999995,201.877
2819.9999999999995,201.877
2829.9999999999995,201.877
2839.9999999999995,201.877
2849.9999999999995,201.877
2859.9999999999995,201.877
2869.9999999999995,201.877
2879.9999999999995,201.877
2889.9999999999995,201.877
2899.9999999999995,201.877
2909.9999999999995,201.877
2919.9999999999995,201.877
2929.9999999999995,201.877
2939.9999999999995,201.877
2949.9999999999995,201.877
2959.9999999999995,201.877
2969.9999999999995,201.877
2979.9999999999995,201.877
2989.9999999999995,201.877
2999.9999999999995,201.877
3009.9999999999995,201.877
3019.9999999999995,201.877
3029.9999999999995,201.877
3039.9999999999995,201.877
3049.9999999999995,201.877
3059.9999999999995,201.877
3069.9999999999995,201.877
3079.9999999999995,201.877
3089.9999999999995,201.877
3099.9999999999995,201.877
3109.9999999999995,201.877
3119.9999999999995,201.877
3129.9999999999995,201.877
3139.9999999999995,201.877
3149.9999999999995,201.877
3159.9999999999995,201.877
3169.9999999999995,201.877
3179.9999999999995,201.877
3189.9999999999995,201.877
3199.9999999999995,201.877
3209.9999999999995,201.877
3219.9999999999995,201.877
3229.9999999999995,201.877
3239.9999999999995,201.877
3249.9999999999995,201.877
3259.9999999999995,201.877
3269.9999999999995,201.877
3279.9999999999995,201.877
3289.9999999999995,201.877
3299.9999999999995,201.877
3309.9999999999995,201.877
3319.9999999999995,201.877
3329.9999999999995,201.877
3339.9999999999995,201.877
3349.9999999999995,201.877
3359.9999999999995,201.877
3369.9999999999995,201.877
3379.9999999999995,201.877
3389.9999999999995,201.877
3399.9999999999995,201.877
3409.9999999999995,201.877
3419.9999999999995,201.877
3429.9999999999995,201.877
3439.9999999999995,201.877
3449.9999999999995,201.877
3459.9999999999995,201.877
3469.9999999999995,201.877
3479.9999999999995,201.877
3489.9999999999995,201.877
3499.9999999999995,201.877
3509.9999999999995,201.877
3519.9999999999995,201.877
3529.9999999999995,201.877
3539.9999999999995,201.877
3549.9999999999995,201.877
3559.9999999999995,201.877
3569.9999999999995,201.877
3579.9999999999995,201.877
3589.9999999999995,201.877
3599.9999999999995,201.877
3609.9999999999995,201.877
3619.9999999999995,201.877
3629.9999999999995,201.877
3639.9999999999995,201.877
3649.9999999999995,201.877
3659.9999999999995,201.877
3669.9999999999995,201.877
3679.9999999999995,201.877
3689.9999999999995,201.877
3699.9999999999995,201.877
3709.9999999999995,201.877
3719.9999999999995,201.877
3729.9999999999995,201.877
3739.9999999999995,201.877
3749.9999999999995,201.877
3759.9999999999995,201.877
3769.9999999999995,201.877
3779.9999999999995,201.877
3789.9999999999995,201.877
3799.9999999999995,201.877
3809.9999999999995,201.877
3819.9999999999995,201.877
3829.9999999999995,201.877
3839.9999999999995,201.877
3849.9999999999995,201.877
3859.9999999999995,201.877
3869.9999999999995,201.877
3879.9999999999995,201.877
3889.9999999999995,201.877
3899.9999999999995,201.877
3909.9999999999995,201.877
3919.9999999999995,201.877
3929.9999999999995,201.877
3939.9999999999995,201.877
3949.9999999999995,201.877
3959.9999999999995,201.877
3969.9999999999995,201.877
3979.9999999999995,202.08337399795056
3989.9999999999995,202.17138049275053
3999.9999999999995,202.20997503430067
4009.9999999999995,202.24873117725025
4019.9999999999995,202.28877809685076
4029.9999999999995,202.3260806991501
4039.9999999999995,202.36354548415056
4049.9999999999995,202.3769482276008
4059.9999999999995,202.38712126825095
4069.9999999999995,202.3964874645008
4079.9999999999995,202.40649919440006
4089.9999999999995,202.41602699205004
4099.999999999999,202.4255539177501
4109.999999999999,202.4195793163492
4119.999999999999,202.40617628224953
4129.999999999999,202.39148101824935
4139.999999999999,202.37823987619873
4149.999999999999,202.36370650424863
4159.999999999999,202.56022979240038
4169.999999999999,202.68650907920033
4179.999999999999,202.67294299044943
4189.999999999999,202.6605101460491
4199.999999999999,202.6462982329984
4209.999999999999,202.63418771944777
4219.999999999999,202.61674755684857
4229.999999999999,202.59833894844985
4239.999999999999,202.58832692789957
4249.999999999999,202.5802532521991
4259.999999999999,202.57153288024892
4269.999999999999,202.5634589138989
4279.999999999999,202.5563536839988
4289.999999999999,202.56765735314912
4299.999999999999,202.58009106950027
4309.999999999999,202.59171794144868
4319.999999999999,202.6035067054496
4329.999999999999,202.61448688114876
4339.999999999999,202.62724438159984
4349.999999999999,202.63790135449904
4359.999999999999,202.68876917359916
4369.999999999999,202.80212964919951
4379.999999999999,202.92356409114876
4389.999999999999,203.03514840459923
4399.999999999999,203.15706765074953
4409.999999999999,203.26041639644944
4419.999999999999,203.274464964199
4429.999999999999,203.13575254234888
4439.999999999999,202.98977183594945
4449.999999999999,202.84282297439933
4459.999999999999,202.69974963994844
4469.999999999999,202.5507019947499
4479.999999999999,202.43330351869918
4489.999999999999,202.42361499159875
4499.999999999999,202.43298147849907
4509.999999999999,202.4444458770991
4519.999999999999,202.45510401259924
4529.999999999999,202.46543865464923
4539.999999999999,202.48513949294875
4549.999999999999,202.49369884479756
4559.999999999999,202.4919221013501
4569.999999999999,202.49046827004804
4579.999999999999,202.48885429060044
4589.999999999999,202.4875611887486
4599.999999999999,202.48723914855032
4609.999999999999,202.48384755369966
4619.999999999999,202.4620479317494
4629.999999999999,202.44089413409944
4639.999999999999,202.42022397804908
4649.999999999999,203.03934539060026
4659.999999999999,202.70782244370093
4669.999999999999,202.68133928765093
4679.999999999999,202.74496315395214
4689.999999999999,202.81827583800077
4699.999999999999,202.8896510491506
4709.999999999999,202.9613503350502
4719.999999999999,203.03337049855003
4729.999999999999,203.10248532465073
4739.999999999999,203.13881831855025
4749.999999999999,203.16546220405047
4759.999999999999,203.1909777862499
4769.999999999999,203.21810821985036
4779.999999999999,203.24410511845014
4789.999999999999,203.26816541610071
4799.999999999999,203.25960693620004
4809.999999999999,203.2612223688995
4819.999999999999,203.26283780160207
4829.999999999999,203.26477527450027
4839.999999999999,203.26719697030063
4849.999999999999,203.26848920019984
4859.999999999999,203.25993013900057
4869.999999999999,203.22052875305087
4879.999999999999,203.16513987320104
4889.999999999999,203.10829832465032
4899.999999999999,203.05177939760017
4909.999999999999,202.99655270045002
4919.999999999999,202.94923865890047
4929.999999999999,202.94116469255073
4939.999999999999,202.93115267199994
4949.999999999999,202.91758745520087
4959.999999999999,202.90321626595045
4969.999999999999,202.88997425195112
4979.999999999999,202.8775399542995
4989.999999999999,202.8718882650506
4999.999999999999,202.86542944075097
5009.999999999999,202.88044674495097
5019.999999999999,202.89756370475044
5029.999999999999,202.91807225940084
5039.999999999999,202.93518980049998
5049.999999999999,202.94213401030004
5059.999999999999,202.95149846265048
5069.999999999999,203.7057151578005
5079.999999999999,203.93880047204976
5089.999999999999,204.43261453140138
5099.999999999999,204.3003603525512
5109.999999999999,203.77699619835045
5119.999999999999,203.58370145040072
5129.999999999999,204.1275750312003
5139.999999999999,203.7991193137513
5149.999999999999,203.31829120575048
5159.999999999999,203.21277653625037
5169.999999999999,203.43426433420092
5179.999999999999,203.80380255720172
5189.999999999999,210.16183583149882
5199.999999999999,211.86709769244874
5209.999999999999,211.75945779015092
5219.999999999999,211.61890032210027
5229.999999999999,211.66824891364877
5239.999999999999,211.97351686474974
5249.999999999999,212.2577257700998
5259.999999999999,211.78151144019796
5269.999999999999,212.20524280894853
5279.999999999999,212.0837139057483
5289.999999999999,211.70561691219962
5299.999999999999,212.03594238109787
5309.999999999999,212.7216630439985
5319.999999999999,211.90802092179905
5329.999999999999,211.8535327662999
5339.999999999999,211.8708121994489
5349.999999999999,212.22067952109802
5359.999999999999,212.3738974124987
5369.999999999999,212.07566696984912
5379.999999999999,213.00926296289924
5389.999999999999,212.80385653879796
5399.999999999999,212.79804179489753
5409.999999999999,213.23646813699787
5419.999999999999,213.32964442334844
5429.999999999999,212.93440053304954
5439.999999999999,212.8630532242987
5449.999999999999,213.518255346547
5459.999999999999,212.89403099194834
5469.999999999999,212.62848530439783
5479.999999999999,213.12352590674845
5489.999999999999,213.38632437049836
5499.999999999999,212.8803995069489
5509.999999999999,213.50033008909747
5519.999999999999,213.62548020064742
5529.999999999999,213.4701341699481
5539.999999999999,213.25235942574727
5549.999999999999,213.4676438807483
5559.999999999999,213.84751703644633
5569.999999999999,213.6172428889979
5579.999999999999,214.2873945939976
5589.999999999999,214.84903037759915
5599.999999999999,214.43789752374948
5609.999999999999,213.49329054609888
5619.999999999999,213.23446381459814
5629.999999999999,213.73157297299792
5639.999999999999,213.09403917359703
5649.999999999999,213.675216228649
5659.999999999999,214.0106152839486
5669.999999999999,213.9045196050966
5679.999999999999,213.47546120314706
5689.999999999999,213.2820063070476
5699.999999999999,213.8802971247477
5709.999999999999,213.53860200914892
5719.999999999999,214.04016305359983
5729.999999999999,213.90678057144646
5739.999999999999,214.128495948347
5749.999999999999,213.76451524399602
5759.999999999999,213.70186040479825
5769.999999999999,213.4912876769493
5779.999999999999,213.86140313084616
5789.999999999999,214.66994754269723
5799.999999999999,215.02068390784513
5809.999999999999,215.18668952729695
5819.999999999999,215.10740602029819
5829.999999999999,214.34052105424627
5839.999999999999,214.93816750089712
5849.999999999999,215.28030789229615
5859.999999999999,215.11648418239741
5869.999999999999,214.46776907749665
5879.999999999999,213.93284519149654
5889.999999999999,213.6161128417961
5899.999999999999,213.813120062196
5909.999999999999,214.45429977519757
5919.999999999999,214.45904957749832
5929.999999999999,214.48246463214667
5939.999999999999,214.89327544579754
5949.999999999999,215.58845705684826
5959.999999999999,215.3289554360457
5969.999999999999,214.48585477374684
5979.999999999999,215.4384400938972
5989.999999999999,216.37794325754743
5999.999999999999,215.85836191309716
6009.999999999999,214.99630331389682
6019.999999999999,216.1567141380961
6029.999999999999,217.12948190359805
6039.999999999999,215.6007277185472
6049.999999999999,215.60363625309532
6059.999999999999,216.02381151909339
6069.999999999999,216.38068873744385
6079.999999999999,216.29413374874423
6089.999999999999,215.368680315444
6099.999999999999,215.13906071179406
6109.999999999999,215.57456921854583
6119.999999999999,216.60482551949707
6129.999999999999,216.94878189209635
6139.999999999999,216.56138700504704
6149.999999999999,216.34822865479794
6159.999999999999,215.7777111884987
6169.999999999999,216.85415177444946
6179.999999999999,217.27723470304835
6189.999999999999,216.66166416154783
6199.999999999999,216.12796565594738
6209.999999999999,215.96599919954815
6219.999999999999,215.94597515844845
6229.999999999999,216.59772116154699
6239.999999999999,217.20763885119817
6249.999999999999,216.772605847848
6259.999999999999,218.1171684429458
6269.999999999999,217.3828723174961
